#Parameters = {airCoaxOuterDiameter=3; connectorLength=10; drillingHoleDiameter=4.1; feedLength=120; gratingDistance=17.64; gratingGap=7; probe1Diameter=1.3; probe1Distance=15.62; probe1Length=12.32; probe2Diameter=1.3; probe2Distance=14.3; probe2Length=11.96697; smaInnerDiameter=1.3; smaOuterDiameter=4.1; waveguideSide=50; waveguideThickness=3; wireCount=7; wireDiameter=2}
#"Frequency / GHz"	"S1,1 (gratingDistance=17.64) [Magnitude / dB]"
#-----------------------------------------------------------------
4.6999998092651	-10.754344498155
4.7010002136230	-10.774501721873
4.7020001411438	-10.794809152367
4.7030000686646	-10.815273062837
4.7039999961853	-10.835892727681
4.7049999237061	-10.856669933250
4.7059998512268	-10.877606424763
4.7069997787476	-10.898703043936
4.7080001831055	-10.919961299576
4.7090001106262	-10.941385189505
4.7100000381470	-10.962973024286
4.7109999656677	-10.984728134084
4.7119998931885	-11.006652285405
4.7129998207092	-11.028746347660
4.7140002250671	-11.051012071334
4.7150001525879	-11.073450668171
4.7160000801086	-11.096063472236
4.7170000076294	-11.118853741325
4.7179999351501	-11.141822089874
4.7189998626709	-11.164968077012
4.7199997901917	-11.188296160088
4.7210001945496	-11.211805788523
4.7220001220703	-11.235498531106
4.7230000495911	-11.259377784942
4.7239999771118	-11.283443229318
4.7249999046326	-11.307697305543
4.7259998321533	-11.332141959416
4.7270002365112	-11.356777370563
4.7280001640320	-11.381604449854
4.7290000915527	-11.406628682300
4.7300000190735	-11.431846678763
4.7309999465942	-11.457263198766
4.7319998741150	-11.482876962455
4.7329998016357	-11.508692896809
4.7340002059937	-11.534709962078
4.7350001335144	-11.560930790340
4.7360000610352	-11.587356481871
4.7369999885559	-11.613987742287
4.7379999160767	-11.640827567429
4.7389998435974	-11.667875351193
4.7399997711182	-11.695137004847
4.7410001754761	-11.722608921209
4.7420001029968	-11.750294504648
4.7430000305176	-11.778197847113
4.7439999580383	-11.806315053095
4.7449998855591	-11.834652594368
4.7459998130798	-11.863209640338
4.7470002174377	-11.891988154610
4.7480001449585	-11.920989892988
4.7490000724792	-11.950215751465
4.7500000000000	-11.979668184790
4.7509999275208	-12.009347128712
4.7519998550415	-12.039256080044
4.7529997825623	-12.069394681895
4.7540001869202	-12.099766417660
4.7550001144409	-12.130372298049
4.7560000419617	-12.161213643904
4.7569999694824	-12.192290068404
4.7579998970032	-12.223606673785
4.7589998245239	-12.255163014163
4.7600002288818	-12.286961388983
4.7610001564026	-12.319000979354
4.7620000839233	-12.351286445304
4.7630000114441	-12.383819309014
4.7639999389648	-12.416599852493
4.7649998664856	-12.449629410995
4.7659997940063	-12.482910317262
4.7670001983643	-12.516444537351
4.7680001258850	-12.550232852041
4.7690000534058	-12.584277946122
4.7699999809265	-12.618581027072
4.7709999084473	-12.653143085084
4.7719998359680	-12.687967484085
4.7729997634888	-12.723053896299
4.7740001678467	-12.758405031449
4.7750000953674	-12.794022896766
4.7760000228882	-12.829910032084
4.7769999504089	-12.866065470142
4.7779998779297	-12.902492394377
4.7789998054504	-12.939193551743
4.7800002098083	-12.976169971433
4.7810001373291	-13.013423264637
4.7820000648499	-13.050955940416
4.7829999923706	-13.088769307172
4.7839999198914	-13.126864962824
4.7849998474121	-13.165245523357
4.7859997749329	-13.203912381950
4.7870001792908	-13.242867589750
4.7880001068115	-13.282112559393
4.7890000343323	-13.321650691996
4.7899999618530	-13.361482047211
4.7909998893738	-13.401609561120
4.7919998168945	-13.442035776775
4.7930002212524	-13.482762099225
4.7940001487732	-13.523790078284
4.7950000762939	-13.565122909530
4.7960000038147	-13.606761442697
4.7969999313354	-13.648708364273
4.7979998588562	-13.690966606852
4.7989997863770	-13.733537926513
4.8000001907349	-13.776423151358
4.8010001182556	-13.819625510204
4.8020000457764	-13.863147661707
4.8029999732971	-13.906991489064
4.8039999008179	-13.951159962694
4.8049998283386	-13.995653362842
4.8060002326965	-14.040475836104
4.8070001602173	-14.085629711065
4.8080000877380	-14.131116894052
4.8090000152588	-14.176939617448
4.8099999427795	-14.223100737988
4.8109998703003	-14.269602244207
4.8119997978210	-14.316447090411
4.8130002021790	-14.363638303152
4.8140001296997	-14.411179050347
4.8150000572205	-14.459069153247
4.8159999847412	-14.507313785932
4.8169999122620	-14.555913380656
4.8179998397827	-14.604873758171
4.8189997673035	-14.654195529597
4.8200001716614	-14.703882700258
4.8210000991821	-14.753936447654
4.8220000267029	-14.804361198425
4.8229999542236	-14.855160080981
4.8239998817444	-14.906335329942
4.8249998092651	-14.957890222371
4.8260002136230	-15.009826692166
4.8270001411438	-15.062150458807
4.8280000686646	-15.114861728616
4.8289999961853	-15.167964744477
4.8299999237061	-15.221465343856
4.8309998512268	-15.275363100638
4.8319997787476	-15.329663766882
4.8330001831055	-15.384368651609
4.8340001106262	-15.439483964484
4.8350000381470	-15.495010949777
4.8359999656677	-15.550955585534
4.8369998931885	-15.607317904785
4.8379998207092	-15.664105840122
4.8390002250671	-15.721319751555
4.8400001525879	-15.778964856375
4.8410000801086	-15.837045678488
4.8420000076294	-15.895564392349
4.8429999351501	-15.954528505026
4.8439998626709	-16.013937460364
4.8449997901917	-16.073800492259
4.8460001945496	-16.134116189144
4.8470001220703	-16.194893836446
4.8480000495911	-16.256135606492
4.8489999771118	-16.317845268067
4.8499999046326	-16.380029238926
4.8509998321533	-16.442691992024
4.8520002365112	-16.505835504545
4.8530001640320	-16.569469693773
4.8540000915527	-16.633594457419
4.8550000190735	-16.698217446183
4.8559999465942	-16.763342837225
4.8569998741150	-16.828976877987
4.8579998016357	-16.895123494285
4.8590002059937	-16.961789983916
4.8600001335144	-17.028979398399
4.8610000610352	-17.096698921920
4.8619999885559	-17.164954885431
4.8629999160767	-17.233750692679
4.8639998435974	-17.303095253159
4.8649997711182	-17.372993713295
4.8660001754761	-17.443450999300
4.8670001029968	-17.514473529055
4.8680000305176	-17.586070071989
4.8689999580383	-17.658243466310
4.8699998855591	-17.731004269830
4.8709998130798	-17.804357611147
4.8720002174377	-17.878310125736
4.8730001449585	-17.952870276880
4.8740000724792	-18.028044021300
4.8750000000000	-18.103838693520
4.8759999275208	-18.180264168404
4.8769998550415	-18.257325383871
4.8779997825623	-18.335032983626
4.8790001869202	-18.413392627811
4.8800001144409	-18.492413396925
4.8810000419617	-18.572105544728
4.8819999694824	-18.652476268300
4.8829998970032	-18.733535413821
4.8839998245239	-18.815290211369
4.8850002288818	-18.897751869114
4.8860001564026	-18.980928288676
4.8870000839233	-19.064830850401
4.8880000114441	-19.149468608064
4.8889999389648	-19.234853143231
4.8899998664856	-19.320993435853
4.8909997940063	-19.407900314618
4.8920001983643	-19.495585108084
4.8930001258850	-19.584059632013
4.8940000534058	-19.673334753837
4.8949999809265	-19.763423848005
4.8959999084473	-19.854335020281
4.8969998359680	-19.946085827996
4.8979997634888	-20.038685714822
4.8990001678467	-20.132148430866
4.9000000953674	-20.226487899912
4.9010000228882	-20.321716990305
4.9019999504089	-20.417851040388
4.9029998779297	-20.514905017914
4.9039998054504	-20.612891161682
4.9050002098083	-20.711826377988
4.9060001373291	-20.811726849546
4.9070000648499	-20.912608124327
4.9079999923706	-21.014486253066
4.9089999198914	-21.117379019952
4.9099998474121	-21.221303325665
4.9109997749329	-21.326278875698
4.9120001792908	-21.432321302944
4.9130001068115	-21.539450387599
4.9140000343323	-21.647686782928
4.9149999618530	-21.757050665349
4.9159998893738	-21.867560586169
4.9169998168945	-21.979240448453
4.9180002212524	-22.092109152854
4.9190001487732	-22.206192936427
4.9200000762939	-22.321511473089
4.9210000038147	-22.438090244852
4.9219999313354	-22.555954509296
4.9229998588562	-22.675128258550
4.9239997863770	-22.795637921798
4.9250001907349	-22.917509669944
4.9260001182556	-23.040773651952
4.9270000457764	-23.165453973909
4.9279999732971	-23.291585245559
4.9289999008179	-23.419194275144
4.9299998283386	-23.548313136981
4.9310002326965	-23.678975517427
4.9320001602173	-23.811212030664
4.9330000877380	-23.945059053511
4.9340000152588	-24.080551625269
4.9349999427795	-24.217726243864
4.9359998703003	-24.356620034006
4.9369997978210	-24.497272466222
4.9380002021790	-24.639722120584
4.9390001296997	-24.784012407979
4.9400000572205	-24.930183954125
4.9409999847412	-25.078281874899
4.9419999122620	-25.228351463768
4.9429998397827	-25.380439120539
4.9439997673035	-25.534593544092
4.9450001716614	-25.690864092238
4.9460000991821	-25.849301169999
4.9470000267029	-26.009958706547
4.9479999542236	-26.172890196434
4.9489998817444	-26.338151060822
4.9499998092651	-26.505798412337
4.9510002136230	-26.675892134980
4.9520001411438	-26.848490345919
4.9530000686646	-27.023657015160
4.9539999961853	-27.201453036087
4.9549999237061	-27.381944506551
4.9559998512268	-27.565196619659
4.9569997787476	-27.751274702027
4.9580001831055	-27.940247912044
4.9590001106262	-28.132182129242
4.9600000381470	-28.327146398466
4.9609999656677	-28.525210784943
4.9619998931885	-28.726442117040
4.9629998207092	-28.930905522337
4.9640002250671	-29.138668307529
4.9650001525879	-29.349794288011
4.9660000801086	-29.564341527696
4.9670000076294	-29.782365124929
4.9679999351501	-30.003916121912
4.9689998626709	-30.229034433876
4.9699997901917	-30.457756205693
4.9710001945496	-30.690102065454
4.9720001220703	-30.926079214188
4.9730000495911	-31.165679365056
4.9739999771118	-31.408873244245
4.9749999046326	-31.655605280371
4.9759998321533	-31.905791815711
4.9770002365112	-32.159311494198
4.9780001640320	-32.416002019866
4.9790000915527	-32.675652308313
4.9800000190735	-32.937987019046
4.9809999465942	-33.202667291307
4.9819998741150	-33.469268674725
4.9829998016357	-33.737277834052
4.9840002059937	-34.006068758841
4.9850001335144	-34.274901325305
4.9860000610352	-34.542888418864
4.9869999885559	-34.808999966772
4.9879999160767	-35.072035741965
4.9889998435974	-35.330615157807
4.9899997711182	-35.583178663089
4.9910001754761	-35.827977714223
4.9920001029968	-36.063085225700
4.9930000305176	-36.286413912717
4.9939999580383	-36.495753934171
4.9949998855591	-36.688811989718
4.9959998130798	-36.863285443747
4.9970002174377	-37.016938143278
4.9980001449585	-37.147694076539
4.9990000724792	-37.253732414782
5.0000000000000	-37.333584625597
5.0009999275208	-37.386219676014
5.0019998550415	-37.411103465090
5.0029997825623	-37.408235227340
5.0040001869202	-37.378146922167
5.0050001144409	-37.321864717456
5.0060000419617	-37.240856149973
5.0069999694824	-37.136939922689
5.0079998970032	-37.012192005483
5.0089998245239	-36.868849160118
5.0100002288818	-36.709216177565
5.0110001564026	-36.535581516906
5.0120000839233	-36.350163705260
5.0130000114441	-36.155048947886
5.0139999389648	-35.952163129326
5.0149998664856	-35.743260561841
5.0159997940063	-35.529903801360
5.0170001983643	-35.313473736712
5.0180001258850	-35.095171297278
5.0190000534058	-34.876031282938
5.0199999809265	-34.656941137681
5.0209999084473	-34.438642170049
5.0219998359680	-34.221763355646
5.0229997634888	-34.006820047991
5.0240001678467	-33.794234580511
5.0250000953674	-33.584351414698
5.0260000228882	-33.377444205586
5.0269999504089	-33.173728346444
5.0279998779297	-32.973364706492
5.0289998054504	-32.776475553982
5.0300002098083	-32.583146657127
5.0310001373291	-32.393436224409
5.0320000648499	-32.207369625341
5.0329999923706	-32.024963047930
5.0339999198914	-31.846203794514
5.0349998474121	-31.671074314083
5.0359997749329	-31.499542036016
5.0370001792908	-31.331566199364
5.0380001068115	-31.167094452785
5.0390000343323	-31.006077262731
5.0399999618530	-30.848452373497
5.0409998893738	-30.694158027799
5.0419998168945	-30.543132909443
5.0430002212524	-30.395307263042
5.0440001487732	-30.250615381345
5.0450000762939	-30.108989827422
5.0460000038147	-29.970364534016
5.0469999313354	-29.834669531329
5.0479998588562	-29.701842019633
5.0489997863770	-29.571814108944
5.0500001907349	-29.444519822928
5.0510001182556	-29.319897574259
5.0520000457764	-29.197885598459
5.0529999732971	-29.078421704849
5.0539999008179	-28.961449494836
5.0549998283386	-28.846907815688
5.0560002326965	-28.734742466715
5.0570001602173	-28.624898610717
5.0580000877380	-28.517322317403
5.0590000152588	-28.411961310915
5.0599999427795	-28.308767219199
5.0609998703003	-28.207690537522
5.0619997978210	-28.108682989026
5.0630002021790	-28.011701514716
5.0640001296997	-27.916698649969
5.0650000572205	-27.823633500885
5.0659999847412	-27.732464160352
5.0669999122620	-27.643151008511
5.0679998397827	-27.555652921981
5.0689997673035	-27.469933864243
5.0700001716614	-27.385956248040
5.0710000991821	-27.303684464893
5.0720000267029	-27.223086836010
5.0729999542236	-27.144127936794
5.0739998817444	-27.066774545624
5.0749998092651	-26.990997266321
5.0760002136230	-26.916764264246
5.0770001411438	-26.844048519242
5.0780000686646	-26.772821098370
5.0789999961853	-26.703054571822
5.0799999237061	-26.634721582385
5.0809998512268	-26.567795948164
5.0819997787476	-26.502256068963
5.0830001831055	-26.438073717471
5.0840001106262	-26.375227568434
5.0850000381470	-26.313695153779
5.0859999656677	-26.253452647088
5.0869998931885	-26.194481788676
5.0879998207092	-26.136759119867
5.0890002250671	-26.080266681314
5.0900001525879	-26.024983688888
5.0910000801086	-25.970894076918
5.0920000076294	-25.917974723497
5.0929999351501	-25.866211436783
5.0939998626709	-25.815587501827
5.0949997901917	-25.766082882712
5.0960001945496	-25.717686130447
5.0970001220703	-25.670377098914
5.0980000495911	-25.624143516193
5.0989999771118	-25.578969184575
5.0999999046326	-25.534841758065
5.1009998321533	-25.491744995662
5.1020002365112	-25.449666442514
5.1030001640320	-25.408593934307
5.1040000915527	-25.368513383638
5.1050000190735	-25.329413717831
5.1059999465942	-25.291281610162
5.1069998741150	-25.254105327020
5.1079998016357	-25.217875975078
5.1090002059937	-25.182580762134
5.1100001335144	-25.148209669750
5.1110000610352	-25.114752731119
5.1119999885559	-25.082199443501
5.1129999160767	-25.050538758562
5.1139998435974	-25.019764886432
5.1149997711182	-24.989864586301
5.1160001754761	-24.960832150480
5.1170001029968	-24.932659500675
5.1180000305176	-24.905334742767
5.1189999580383	-24.878852028603
5.1199998855591	-24.853203052200
5.1209998130798	-24.828381008483
5.1220002174377	-24.804378770347
5.1230001449585	-24.781187254893
5.1240000724792	-24.758801576970
5.1250000000000	-24.737214351505
5.1259999275208	-24.716419003299
5.1269998550415	-24.696408459831
5.1279997825623	-24.677178182988
5.1290001869202	-24.658721618769
5.1300001144409	-24.641032217534
5.1310000419617	-24.624106236154
5.1319999694824	-24.607937721901
5.1329998970032	-24.592519887940
5.1339998245239	-24.577850306160
5.1350002288818	-24.563921504894
5.1360001564026	-24.550732356192
5.1370000839233	-24.538275764218
5.1380000114441	-24.526546194196
5.1389999389648	-24.515543631080
5.1399998664856	-24.505259900530
5.1409997940063	-24.495693729050
5.1420001983643	-24.486840882859
5.1430001258850	-24.478697166240
5.1440000534058	-24.471260174884
5.1449999809265	-24.464526262688
5.1459999084473	-24.458491247348
5.1469998359680	-24.453153373759
5.1479997634888	-24.448509005649
5.1490001678467	-24.444557448667
5.1500000953674	-24.441293170600
5.1510000228882	-24.438713364472
5.1519999504089	-24.436818404863
5.1529998779297	-24.435606496885
5.1539998054504	-24.435071539592
5.1550002098083	-24.435214183134
5.1560001373291	-24.436033737543
5.1570000648499	-24.437526653939
5.1579999923706	-24.439689578639
5.1589999198914	-24.442525864661
5.1599998474121	-24.446029140732
5.1609997749329	-24.450199351868
5.1620001792908	-24.455037023022
5.1630001068115	-24.460541700354
5.1640000343323	-24.466709331674
5.1649999618530	-24.473539494809
5.1659998893738	-24.481031938384
5.1669998168945	-24.489188526674
5.1680002212524	-24.498004818291
5.1690001487732	-24.507483796838
5.1700000762939	-24.517621767082
5.1710000038147	-24.528420163923
5.1719999313354	-24.539876767877
5.1729998588562	-24.551995709398
5.1739997863770	-24.564774002596
5.1750001907349	-24.578210734838
5.1760001182556	-24.592308549600
5.1770000457764	-24.607067709241
5.1779999732971	-24.622485080345
5.1789999008179	-24.638564716819
5.1799998283386	-24.655306475042
5.1810002326965	-24.672710918394
5.1820001602173	-24.690776580374
5.1830000877380	-24.709506370962
5.1840000152588	-24.728901136098
5.1849999427795	-24.748961942922
5.1859998703003	-24.769686722792
5.1869997978210	-24.791081407549
5.1880002021790	-24.813145212724
5.1890001296997	-24.835877588241
5.1900000572205	-24.859281963572
5.1909999847412	-24.883357539738
5.1919999122620	-24.908110036796
5.1929998397827	-24.933536487925
5.1939997673035	-24.959640326503
5.1950001716614	-24.986423847235
5.1960000991821	-25.013888088038
5.1970000267029	-25.042033199264
5.1979999542236	-25.070865364473
5.1989998817444	-25.100383072788
5.1999998092651	-25.130588209280
5.2010002136230	-25.161485903110
5.2020001411438	-25.193074290403
5.2030000686646	-25.225358421023
5.2039999961853	-25.258339817837
5.2049999237061	-25.292018792993
5.2059998512268	-25.326399659506
5.2069997787476	-25.361485289435
5.2080001831055	-25.397275298191
5.2090001106262	-25.433776279232
5.2100000381470	-25.470986009314
5.2109999656677	-25.508909856060
5.2119998931885	-25.547550161078
5.2129998207092	-25.586908110053
5.2140002250671	-25.626986923672
5.2150001525879	-25.667789121213
5.2160000801086	-25.709315921351
5.2170000076294	-25.751570579793
5.2179999351501	-25.794557036048
5.2189998626709	-25.838274500700
5.2199997901917	-25.882728712829
5.2210001945496	-25.927919994795
5.2220001220703	-25.973848649694
5.2230000495911	-26.020520493118
5.2239999771118	-26.067937412475
5.2249999046326	-26.116098023284
5.2259998321533	-26.165006768333
5.2270002365112	-26.214664272974
5.2280001640320	-26.265072043301
5.2290000915527	-26.316233473445
5.2300000190735	-26.368146677789
5.2309999465942	-26.420816459708
5.2319998741150	-26.474239375977
5.2329998016357	-26.528420693623
5.2340002059937	-26.583356264892
5.2350001335144	-26.639047456662
5.2360000610352	-26.695496203407
5.2369999885559	-26.752699863441
5.2379999160767	-26.810659927672
5.2389998435974	-26.869370755412
5.2399997711182	-26.928835566370
5.2410001754761	-26.989048506957
5.2420001029968	-27.050007035519
5.2430000305176	-27.111709211411
5.2439999580383	-27.174151116442
5.2449998855591	-27.237328472633
5.2459998130798	-27.301235923333
5.2470002174377	-27.365866253718
5.2480001449585	-27.431213010462
5.2490000724792	-27.497270208519
5.2500000000000	-27.564027540811
5.2509999275208	-27.631477518702
5.2519998550415	-27.699608260577
5.2529997825623	-27.768406561588
5.2540001869202	-27.837862092986
5.2550001144409	-27.907960537497
5.2560000419617	-27.978687082545
5.2569999694824	-28.050020445128
5.2579998970032	-28.121947137766
5.2589998245239	-28.194444020674
5.2600002288818	-28.267488396742
5.2610001564026	-28.341058045291
5.2620000839233	-28.415127569294
5.2630000114441	-28.489666131305
5.2639999389648	-28.564647016290
5.2649998664856	-28.640033405940
5.2659997940063	-28.715793878842
5.2670001983643	-28.791885313081
5.2680001258850	-28.868271931260
5.2690000534058	-28.944908682923
5.2699999809265	-29.021747978849
5.2709999084473	-29.098737012609
5.2719998359680	-29.175826602081
5.2729997634888	-29.252957894075
5.2740001678467	-29.330067732462
5.2750000953674	-29.407092949820
5.2760000228882	-29.483965114429
5.2769999504089	-29.560610113825
5.2779998779297	-29.636950019723
5.2789998054504	-29.712904626303
5.2800002098083	-29.788386838720
5.2810001373291	-29.863305190873
5.2820000648499	-29.937562913677
5.2829999923706	-30.011062511263
5.2839999198914	-30.083696691187
5.2849998474121	-30.155355821486
5.2859997749329	-30.225924177384
5.2870001792908	-30.295285570303
5.2880001068115	-30.363315435806
5.2890000343323	-30.429883663743
