#Parameters = {airCoaxOuterDiameter=3; connectorLength=10; drillingHoleDiameter=4.1; feedLength=120; gratingDistance=60.813259168621; gratingGap=7; probe1Diameter=1.3; probe1Distance=15.62; probe1Length=12.32; probe2Diameter=1.3; probe2Distance=14.3; probe2Length=11.96697; smaInnerDiameter=1.3; smaOuterDiameter=4.1; waveguideSide=50; waveguideThickness=3; wireCount=7; wireDiameter=2}
#"Frequency / GHz"	"S1,1 [Magnitude / dB]"
#-----------------------------------------
4.6999998092651	-1.6348043964526
4.7010002136230	-1.6980773315107
4.7020001411438	-1.7636906536954
4.7030000686646	-1.8316024032682
4.7039999961853	-1.9017629069094
4.7049999237061	-1.9741212910321
4.7059998512268	-2.0486249490666
4.7069997787476	-2.1252179893141
4.7080001831055	-2.2038424947804
4.7090001106262	-2.2844385494098
4.7100000381470	-2.3669421722104
4.7109999656677	-2.4512855389926
4.7119998931885	-2.5373960728630
4.7129998207092	-2.6252053977444
4.7140002250671	-2.7146319952481
4.7150001525879	-2.8055976137764
4.7160000801086	-2.8980178641062
4.7170000076294	-2.9918067475838
4.7179999351501	-3.0868738879596
4.7189998626709	-3.1831212724429
4.7199997901917	-3.2804549265569
4.7210001945496	-3.3787720312529
4.7220001220703	-3.4779692077648
4.7230000495911	-3.5779366593071
4.7239999771118	-3.6785644201853
4.7249999046326	-3.7797380785482
4.7259998321533	-3.8813413302807
4.7270002365112	-3.9832555547630
4.7280001640320	-4.0853584594873
4.7290000915527	-4.1875275153140
4.7300000190735	-4.2896380320724
4.7309999465942	-4.3915652440942
4.7319998741150	-4.4931808536960
4.7329998016357	-4.5943614402666
4.7340002059937	-4.6949829171897
4.7350001335144	-4.7949178422324
4.7360000610352	-4.8940455663066
4.7369999885559	-4.9922485872472
4.7379999160767	-5.0894079576221
4.7389998435974	-5.1854135604780
4.7399997711182	-5.2801576865746
4.7410001754761	-5.3735388815829
4.7420001029968	-5.4654607214862
4.7430000305176	-5.5558332385926
4.7439999580383	-5.6445792441347
4.7449998855591	-5.7316214136132
4.7459998130798	-5.8168978404486
4.7470002174377	-5.9003522517158
4.7480001449585	-5.9819401157966
4.7490000724792	-6.0616252427262
4.7500000000000	-6.1393836295800
4.7509999275208	-6.2152001884819
4.7519998550415	-6.2890701765593
4.7529997825623	-6.3610013680852
4.7540001869202	-6.4310086895514
4.7550001144409	-6.4991203000626
4.7560000419617	-6.5653732935047
4.7569999694824	-6.6298138352726
4.7579998970032	-6.6924960701103
4.7589998245239	-6.7534866779750
4.7600002288818	-6.8128552574200
4.7610001564026	-6.8706821702896
4.7620000839233	-6.9270518399982
4.7630000114441	-6.9820563420899
4.7639999389648	-7.0357919278059
4.7649998664856	-7.0883605257012
4.7659997940063	-7.1398650060546
4.7670001983643	-7.1904116887359
4.7680001258850	-7.2401123189564
4.7690000534058	-7.2890737425073
4.7699999809265	-7.3374103339996
4.7709999084473	-7.3852299258513
4.7719998359680	-7.4326442988409
4.7729997634888	-7.4797614699335
4.7740001678467	-7.5266878028496
4.7750000953674	-7.5735296825594
4.7760000228882	-7.6203880819629
4.7769999504089	-7.6673603436384
4.7779998779297	-7.7145438153225
4.7789998054504	-7.7620277444684
4.7800002098083	-7.8098997076423
4.7810001373291	-7.8582432007647
4.7820000648499	-7.9071352400800
4.7829999923706	-7.9566503360077
4.7839999198914	-8.0068557678434
4.7849998474121	-8.0578149140406
4.7859997749329	-8.1095859999655
4.7870001792908	-8.1622218974735
4.7880001068115	-8.2157710587470
4.7890000343323	-8.2702763079446
4.7899999618530	-8.3257739911384
4.7909998893738	-8.3822971305091
4.7919998168945	-8.4398716409211
4.7930002212524	-8.4985196221049
4.7940001487732	-8.5582600340132
4.7950000762939	-8.6190999991050
4.7960000038147	-8.6810498188426
4.7969999313354	-8.7441101060902
4.7979998588562	-8.8082760874328
4.7989997863770	-8.8735431211885
4.8000001907349	-8.9398958878177
4.8010001182556	-9.0073169882433
4.8020000457764	-9.0757862769668
4.8029999732971	-9.1452778628723
4.8039999008179	-9.2157597948540
4.8049998283386	-9.2872009868273
4.8060002326965	-9.3595606829051
4.8070001602173	-9.4327978694702
4.8080000877380	-9.5068674533883
4.8090000152588	-9.5817209686051
4.8099999427795	-9.6573067519194
4.8109998703003	-9.7335692975162
4.8119997978210	-9.8104505586293
4.8130002021790	-9.8878922241022
4.8140001296997	-9.9658301385084
4.8150000572205	-10.044202254053
4.8159999847412	-10.122941350581
4.8169999122620	-10.201981389610
4.8179998397827	-10.281254223073
4.8189997673035	-10.360691896363
4.8200001716614	-10.440223615260
4.8210000991821	-10.519784073219
4.8220000267029	-10.599299785806
4.8229999542236	-10.678707714368
4.8239998817444	-10.757942980125
4.8249998092651	-10.836938277768
4.8260002136230	-10.915631100727
4.8270001411438	-10.993965319902
4.8280000686646	-11.071881888144
4.8289999961853	-11.149326907250
4.8299999237061	-11.226250838023
4.8309998512268	-11.302610713362
4.8319997787476	-11.378361198319
4.8330001831055	-11.453469068448
4.8340001106262	-11.527900322679
4.8350000381470	-11.601629216736
4.8359999656677	-11.674635344726
4.8369998931885	-11.746901647892
4.8379998207092	-11.818418902948
4.8390002250671	-11.889182711774
4.8400001525879	-11.959193615987
4.8410000801086	-12.028461609371
4.8420000076294	-12.096998232303
4.8429999351501	-12.164821732577
4.8439998626709	-12.231957806206
4.8449997901917	-12.298435034021
4.8460001945496	-12.364287891940
4.8470001220703	-12.429556795787
4.8480000495911	-12.494285634829
4.8489999771118	-12.558522222558
4.8499999046326	-12.622319116694
4.8509998321533	-12.685733979038
4.8520002365112	-12.748823001804
4.8530001640320	-12.811650070140
4.8540000915527	-12.874279249274
4.8550000190735	-12.936776419357
4.8559999465942	-12.999210348227
4.8569998741150	-13.061648291024
4.8579998016357	-13.124161549455
4.8590002059937	-13.186821448485
4.8600001335144	-13.249694571075
4.8610000610352	-13.312854158856
4.8619999885559	-13.376368680557
4.8629999160767	-13.440304834919
4.8639998435974	-13.504730783220
4.8649997711182	-13.569711098358
4.8660001754761	-13.635308759357
4.8670001029968	-13.701583369467
4.8680000305176	-13.768594865635
4.8689999580383	-13.836396884643
4.8699998855591	-13.905042263126
4.8709998130798	-13.974581786016
4.8720002174377	-14.045058360626
4.8730001449585	-14.116515259066
4.8740000724792	-14.188991599059
4.8750000000000	-14.262521441200
4.8759999275208	-14.337134174833
4.8769998550415	-14.412857375306
4.8779997825623	-14.489712355011
4.8790001869202	-14.567717505209
4.8800001144409	-14.646885594105
4.8810000419617	-14.727225355417
4.8819999694824	-14.808739889390
4.8829998970032	-14.891430857900
4.8839998245239	-14.975290808400
4.8850002288818	-15.060310759398
4.8860001564026	-15.146476266970
4.8870000839233	-15.233768721196
4.8880000114441	-15.322160829230
4.8889999389648	-15.411627806159
4.8899998664856	-15.502133592209
4.8909997940063	-15.593638828585
4.8920001983643	-15.686102787308
4.8930001258850	-15.779476971374
4.8940000534058	-15.873710641296
4.8949999809265	-15.968745469295
4.8959999084473	-16.064523500493
4.8969998359680	-16.160979152419
4.8979997634888	-16.258044808210
4.8990001678467	-16.355648884132
4.9000000953674	-16.453716005206
4.9010000228882	-16.552168593609
4.9019999504089	-16.650926167503
4.9029998779297	-16.749904233711
4.9039998054504	-16.849020051878
4.9050002098083	-16.948184653447
4.9060001373291	-17.047311640208
4.9070000648499	-17.146311691867
4.9079999923706	-17.245097925904
4.9089999198914	-17.343581416233
4.9099998474121	-17.441671552456
4.9109997749329	-17.539284155699
4.9120001792908	-17.636337644795
4.9130001068115	-17.732745672495
4.9140000343323	-17.828431292197
4.9149999618530	-17.923320953415
4.9159998893738	-18.017341250919
4.9169998168945	-18.110425850329
4.9180002212524	-18.202515456022
4.9190001487732	-18.293553331974
4.9200000762939	-18.383488930070
4.9210000038147	-18.472280935986
4.9219999313354	-18.559889238906
4.9229998588562	-18.646287381657
4.9239997863770	-18.731451530867
4.9250001907349	-18.815364825305
4.9260001182556	-18.898020482802
4.9270000457764	-18.979416227324
4.9279999732971	-19.059557796118
4.9289999008179	-19.138457928240
4.9299998283386	-19.216134650205
4.9310002326965	-19.292613998269
4.9320001602173	-19.367925363901
4.9330000877380	-19.442107269614
4.9340000152588	-19.515197397179
4.9349999427795	-19.587242752619
4.9359998703003	-19.658291501239
4.9369997978210	-19.728394435873
4.9380002021790	-19.797605792268
4.9390001296997	-19.865980086260
4.9400000572205	-19.933572171473
4.9409999847412	-20.000438992394
4.9419999122620	-20.066635008896
4.9429998397827	-20.132213641038
4.9439997673035	-20.197224511847
4.9450001716614	-20.261719245723
4.9460000991821	-20.325738553276
4.9470000267029	-20.389325219714
4.9479999542236	-20.452514846902
4.9489998817444	-20.515336223245
4.9499998092651	-20.577814229986
4.9510002136230	-20.639964864888
4.9520001411438	-20.701800503512
4.9530000686646	-20.763322959376
4.9539999961853	-20.824524890502
4.9549999237061	-20.885394603197
4.9559998512268	-20.945911592647
4.9569997787476	-21.006042168710
4.9580001831055	-21.065749410026
4.9590001106262	-21.124983677778
4.9600000381470	-21.183686367985
4.9609999656677	-21.241792190899
4.9619998931885	-21.299225964724
4.9629998207092	-21.355902547710
4.9640002250671	-21.411729055598
4.9650001525879	-21.466606198258
4.9660000801086	-21.520426893266
4.9670000076294	-21.573075702844
4.9679999351501	-21.624430518242
4.9689998626709	-21.674369278086
4.9699997901917	-21.722755823851
4.9710001945496	-21.769460832807
4.9720001220703	-21.814346052964
4.9730000495911	-21.857275487024
4.9739999771118	-21.898111350008
4.9749999046326	-21.936716676485
4.9759998321533	-21.972958442504
4.9770002365112	-22.006709934261
4.9780001640320	-22.037846418117
4.9790000915527	-22.066252323561
4.9800000190735	-22.091821004347
4.9809999465942	-22.114451528968
4.9819998741150	-22.134061600254
4.9829998016357	-22.150573118923
4.9840002059937	-22.163927547490
4.9850001335144	-22.174074995590
4.9860000610352	-22.180984989894
4.9869999885559	-22.184638765843
4.9879999160767	-22.185034320034
4.9889998435974	-22.182186243356
4.9899997711182	-22.176123481005
4.9910001754761	-22.166890896495
4.9920001029968	-22.154548979574
4.9930000305176	-22.139168777518
4.9939999580383	-22.120838968280
4.9949998855591	-22.099657976512
4.9959998130798	-22.075736711789
4.9970002174377	-22.049193122655
4.9980001449585	-22.020159181743
4.9990000724792	-21.988768986552
5.0000000000000	-21.955166501422
5.0009999275208	-21.919497388890
5.0019998550415	-21.881912432454
5.0029997825623	-21.842565849392
5.0040001869202	-21.801611377483
5.0050001144409	-21.759197637025
5.0060000419617	-21.715482165076
5.0069999694824	-21.670612657743
5.0079998970032	-21.624732752820
5.0089998245239	-21.577986879299
5.0100002288818	-21.530510940512
5.0110001564026	-21.482440650530
5.0120000839233	-21.433897417009
5.0130000114441	-21.385002461659
5.0139999389648	-21.335868028986
5.0149998664856	-21.286601611305
5.0159997940063	-21.237299833649
5.0170001983643	-21.188055144273
5.0180001258850	-21.138951977505
5.0190000534058	-21.090064645991
5.0199999809265	-21.041465704962
5.0209999084473	-20.993214185171
5.0219998359680	-20.945365870940
5.0229997634888	-20.897969755058
5.0240001678467	-20.851064368149
5.0250000953674	-20.804688246361
5.0260000228882	-20.758865213125
5.0269999504089	-20.713620375492
5.0279998779297	-20.668971157454
5.0289998054504	-20.624926619803
5.0300002098083	-20.581491890189
5.0310001373291	-20.538670238105
5.0320000648499	-20.496455232137
5.0329999923706	-20.454842227896
5.0339999198914	-20.413817246850
5.0349998474121	-20.373365715987
5.0359997749329	-20.333467870961
5.0370001792908	-20.294105400265
5.0380001068115	-20.255251531207
5.0390000343323	-20.216879945705
5.0399999618530	-20.178963505416
5.0409998893738	-20.141470397716
5.0419998168945	-20.104371216868
5.0430002212524	-20.067633302712
5.0440001487732	-20.031224553582
5.0450000762939	-19.995111332040
5.0460000038147	-19.959258781509
5.0469999313354	-19.923636834801
5.0479998588562	-19.888209856752
5.0489997863770	-19.852947898905
5.0500001907349	-19.817820244636
5.0510001182556	-19.782798752947
5.0520000457764	-19.747852361071
5.0529999732971	-19.712956689189
5.0539999008179	-19.678087857467
5.0549998283386	-19.643223692928
5.0560002326965	-19.608343112966
5.0570001602173	-19.573428802018
5.0580000877380	-19.538463858386
5.0590000152588	-19.503439917375
5.0599999427795	-19.468343861466
5.0609998703003	-19.433171470516
5.0619997978210	-19.397913249085
5.0630002021790	-19.362571245330
5.0640001296997	-19.327144818918
5.0650000572205	-19.291636980615
5.0659999847412	-19.256055832318
5.0669999122620	-19.220408670243
5.0679998397827	-19.184707759666
5.0689997673035	-19.148965018206
5.0700001716614	-19.113199513552
5.0710000991821	-19.077425591009
5.0720000267029	-19.041665068594
5.0729999542236	-19.005941003908
5.0739998817444	-18.970272391893
5.0749998092651	-18.934690209307
5.0760002136230	-18.899215348956
5.0770001411438	-18.863877922578
5.0780000686646	-18.828705442365
5.0789999961853	-18.793727634724
5.0799999237061	-18.758972989559
5.0809998512268	-18.724471351242
5.0819997787476	-18.690255537053
5.0830001831055	-18.656353327245
5.0840001106262	-18.622794309143
5.0850000381470	-18.589611256642
5.0859999656677	-18.556832087598
5.0869998931885	-18.524483380805
5.0879998207092	-18.492595607018
5.0890002250671	-18.461196506853
5.0900001525879	-18.430310144834
5.0910000801086	-18.399964158991
5.0920000076294	-18.370178474384
5.0929999351501	-18.340978671213
5.0939998626709	-18.312385154678
5.0949997901917	-18.284418350065
5.0960001945496	-18.257092823687
5.0970001220703	-18.230427745221
5.0980000495911	-18.204435329980
5.0989999771118	-18.179131525379
5.0999999046326	-18.154526777203
5.1009998321533	-18.130627857965
5.1020002365112	-18.107444222190
5.1030001640320	-18.084979578386
5.1040000915527	-18.063241536117
5.1050000190735	-18.042227842511
5.1059999465942	-18.021940702646
5.1069998741150	-18.002379852979
5.1079998016357	-17.983539406808
5.1090002059937	-17.965413966788
5.1100001335144	-17.948000639196
5.1110000610352	-17.931285742398
5.1119999885559	-17.915263875368
5.1129999160767	-17.899920031158
5.1139998435974	-17.885241324108
5.1149997711182	-17.871216636255
5.1160001754761	-17.857828930285
5.1170001029968	-17.845059020562
5.1180000305176	-17.832889744635
5.1189999580383	-17.821304155773
5.1199998855591	-17.810279456509
5.1209998130798	-17.799796251356
5.1220002174377	-17.789832594174
5.1230001449585	-17.780366994724
5.1240000724792	-17.771374479575
5.1250000000000	-17.762832552646
5.1259999275208	-17.754719166971
5.1269998550415	-17.747009846619
5.1279997825623	-17.739679630154
5.1290001869202	-17.732705894039
5.1300001144409	-17.726065630352
5.1310000419617	-17.719734772880
5.1319999694824	-17.713689048103
5.1329998970032	-17.707908624421
5.1339998245239	-17.702371152778
5.1350002288818	-17.697055227831
5.1360001564026	-17.691939839648
5.1370000839233	-17.687008051787
5.1380000114441	-17.682240031578
5.1389999389648	-17.677619721755
5.1399998664856	-17.673129985573
5.1409997940063	-17.668758896896
5.1420001983643	-17.664491464134
5.1430001258850	-17.660316475674
5.1440000534058	-17.656224403476
5.1449999809265	-17.652205370216
5.1459999084473	-17.648254557777
5.1469998359680	-17.644362928089
5.1479997634888	-17.640531126833
5.1490001678467	-17.636753956491
5.1500000953674	-17.633032507882
5.1510000228882	-17.629366251835
5.1519999504089	-17.625759224064
5.1529998779297	-17.622214862282
5.1539998054504	-17.618738759739
5.1550002098083	-17.615338971871
5.1560001373291	-17.612023129285
5.1570000648499	-17.608801842260
5.1579999923706	-17.605686841179
5.1589999198914	-17.602688441054
5.1599998474121	-17.599822071496
5.1609997749329	-17.597103656313
5.1620001792908	-17.594545123578
5.1630001068115	-17.592166313167
5.1640000343323	-17.589980716280
5.1649999618530	-17.588010179913
5.1659998893738	-17.586271717168
5.1669998168945	-17.584780998457
5.1680002212524	-17.583559687167
5.1690001487732	-17.582627923091
5.1700000762939	-17.582001543909
5.1710000038147	-17.581703954566
5.1719999313354	-17.581749790825
5.1729998588562	-17.582161186380
5.1739997863770	-17.582956077736
5.1750001907349	-17.584149882770
5.1760001182556	-17.585765015653
5.1770000457764	-17.587814061876
5.1779999732971	-17.590314429904
5.1789999008179	-17.593284012172
5.1799998283386	-17.596731910952
5.1810002326965	-17.600676188321
5.1820001602173	-17.605128361588
5.1830000877380	-17.610100223203
5.1840000152588	-17.615601159461
5.1849999427795	-17.621639269925
5.1859998703003	-17.628222852037
5.1869997978210	-17.635360893574
5.1880002021790	-17.643056163449
5.1890001296997	-17.651312928889
5.1900000572205	-17.660132000293
5.1909999847412	-17.669518075088
5.1919999122620	-17.679469364130
5.1929998397827	-17.689983031680
5.1939997673035	-17.701058214576
5.1950001716614	-17.712688783423
5.1960000991821	-17.724867918783
5.1970000267029	-17.737590832030
5.1979999542236	-17.750845902409
5.1989998817444	-17.764626405139
5.1999998092651	-17.778920352895
5.2010002136230	-17.793713578300
5.2020001411438	-17.808996567737
5.2030000686646	-17.824751567581
5.2039999961853	-17.840963866620
5.2049999237061	-17.857617523722
5.2059998512268	-17.874694500247
5.2069997787476	-17.892177280856
5.2080001831055	-17.910046088161
5.2090001106262	-17.928283949449
5.2100000381470	-17.946867037914
5.2109999656677	-17.965779531502
5.2119998931885	-17.984998703400
5.2129998207092	-18.004502821563
5.2140002250671	-18.024272029912
5.2150001525879	-18.044284054358
5.2160000801086	-18.064520640288
5.2170000076294	-18.084960445230
5.2179999351501	-18.105583200920
5.2189998626709	-18.126368904932
5.2199997901917	-18.147298627203
5.2210001945496	-18.168353834671
5.2220001220703	-18.189518548167
5.2230000495911	-18.210775491177
5.2239999771118	-18.232109117363
5.2249999046326	-18.253505260463
5.2259998321533	-18.274951167215
5.2270002365112	-18.296434957701
5.2280001640320	-18.317947000763
5.2290000915527	-18.339476657815
5.2300000190735	-18.361016542667
5.2309999465942	-18.382564356906
5.2319998741150	-18.404112576924
5.2329998016357	-18.425660606464
5.2340002059937	-18.447206081118
5.2350001335144	-18.468752745463
5.2360000610352	-18.490302118269
5.2369999885559	-18.511857406458
5.2379999160767	-18.533427756629
5.2389998435974	-18.555017324025
5.2399997711182	-18.576638949811
5.2410001754761	-18.598303537287
5.2420001029968	-18.620021875910
5.2430000305176	-18.641808445247
5.2439999580383	-18.663680796881
5.2449998855591	-18.685655697161
5.2459998130798	-18.707747960370
5.2470002174377	-18.729980428249
5.2480001449585	-18.752373267119
5.2490000724792	-18.774947077387
5.2500000000000	-18.797722332294
5.2509999275208	-18.820724571471
5.2519998550415	-18.843975806400
5.2529997825623	-18.867498573290
5.2540001869202	-18.891319575426
5.2550001144409	-18.915459907957
5.2560000419617	-18.939947424115
5.2569999694824	-18.964805124582
5.2579998970032	-18.990053832967
5.2589998245239	-19.015721203629
5.2600002288818	-19.041830343460
5.2610001564026	-19.068401638582
5.2620000839233	-19.095455986281
5.2630000114441	-19.123017563825
5.2639999389648	-19.151105272040
5.2649998664856	-19.179736402883
5.2659997940063	-19.208930660840
5.2670001983643	-19.238703119166
5.2680001258850	-19.269069837538
5.2690000534058	-19.300044109327
5.2699999809265	-19.331636749427
5.2709999084473	-19.363859137991
5.2719998359680	-19.396720996097
5.2729997634888	-19.430226308203
5.2740001678467	-19.464383020777
5.2750000953674	-19.499192657551
5.2760000228882	-19.534656424566
5.2769999504089	-19.570772711967
5.2779998779297	-19.607541505997
5.2789998054504	-19.644954935587
5.2800002098083	-19.683006674729
5.2810001373291	-19.721690689732
5.2820000648499	-19.760992479824
5.2829999923706	-19.800899410638
5.2839999198914	-19.841397888429
5.2849998474121	-19.882469689612
5.2859997749329	-19.924099092509
5.2870001792908	-19.966261644067
5.2880001068115	-20.008936738996
5.2890000343323	-20.052099585614
5.2899999618530	-20.095725666489
